Time t / s,Events N,Channel n,Energy E / keV,Rate R / 1/s,Dead time t / %,Voltage U / V
0,0,0,0,,,776.4296875
1,0,1,1,1408.51881470713,9.85963170294993,728.315104166667
2,0,2,2,1257.97635004462,8.80583445031233,696.497395833333
3.003,0,3,3,1585.43020726391,11.0980114508474,719.002604166667
4.001,2,4,4,1614.18654601048,11.2993058220733,714.346354166667
5.001,0,5,5,1637.47813571815,11.462346950027,696.109375
6,5,6,6,1199.13502260355,8.39394515822482,712.794270833333
6.999,11,7,7,1484.63948738592,10.3924764117014,699.989583333333
8.001,12,8,8,1468.36635740617,10.2785645018432,699.989583333333
9,27,9,9,1765.79213435147,12.3605449404603,699.213541666667
10.001,44,10,10,1519.46658515523,10.6362660960866,705.809895833333
11,38,11,11,1384.577390813,9.69204173569099,696.109375
12,54,12,12,1529.41982574217,10.7059387801952,696.885416666667
13.001,65,13,13,1463.74035487769,10.2461824841438,696.497395833333
14,82,14,14,1843.46331230379,12.9042431861265,703.869791666667
15,92,15,15,1749.81609432849,12.2487126602994,703.869791666667
16,115,16,16,1655.27010027769,11.5868907019438,699.213541666667
17.001,117,17,17,1568.4033498611,10.9788234490277,698.825520833333
18,150,18,18,1233.1234385612,8.63186406992842,713.958333333333
19.001,155,19,19,1632.81818325825,11.4297272828078,712.40625
20,175,20,20,1728.81935193273,12.1017354635291,696.885416666667
21,257,21,21,1692.57719421688,11.8480403595182,700.765625
22.001,323,22,22,1636.04870833123,11.4523409583186,706.197916666667
23.001,397,23,23,1362.78973665239,9.53952815656673,696.109375
24,544,24,24,1595.62181382085,11.1693526967459,704.2578125
25.001,737,25,25,1516.54231019723,10.6157961713806,698.825520833333
26,1074,26,26,1408.4244218129,9.85897095269027,705.809895833333
27,1332,27,27,1408.25545974236,9.85778821819652,697.2734375
28.001,1691,28,28,1471.87036204917,10.3030925343442,736.463541666667
29,2200,29,29,1698.20072732597,11.8874050912818,708.138020833333
30,2805,30,30,1342.4794252505,9.39735597675347,704.645833333333
31.001,3507,31,31,1502.41385605343,10.516896992374,698.4375
32,4158,32,32,1442.93213395882,10.1005249377118,701.153645833333
33.001,4754,33,33,1437.51997251181,10.0626398075827,696.109375
34,5544,34,34,1441.30717573473,10.0891502301431,700.377604166667
35.001,6123,35,35,1530.94524589868,10.7166167212908,712.018229166667
36.001,6704,36,36,1332.43542791591,9.32704799541136,711.2421875
37,6970,37,37,1703.54743207993,11.9248320245595,696.497395833333
38.001,7261,38,38,1499.1818507585,10.4942729553095,722.494791666667
39.001,7185,39,39,1661.09968796642,11.6276978157649,696.109375
40.001,6854,40,40,1396.26283642631,9.77383985498416,704.645833333333
41,6697,41,41,1520.00910451034,10.6400637315724,715.122395833333
42.001,6022,42,42,1303.0229243167,9.12116047021687,696.109375
43.001,5399,43,43,1163.15123554546,8.1420586488182,698.4375
44,4712,44,44,1265.31598906163,8.85721192343139,708.138020833333
45,4113,45,45,1594.41503634489,11.1609052544142,713.958333333333
46.001,3452,46,46,1522.57992685184,10.6580594879629,699.6015625
47.001,2804,47,47,1765.14756633655,12.3560329643558,712.40625
48.001,2286,48,48,1585.46916508011,11.0982841555608,706.5859375
49,1845,49,49,1890.66620393638,13.2346634275547,704.645833333333
50.001,1441,50,50,1376.88974615396,9.63822822307775,696.497395833333
51,1156,51,51,1469.33424465375,10.2853397125762,696.109375
52,917,52,52,1428.53565078013,9.99974955546094,729.479166666667
53.001,820,53,53,1622.80658028683,11.3596460620078,745.388020833333
54.001,717,54,54,1616.40803470036,11.3148562429025,720.5546875
55.001,712,55,55,1676.26323674236,11.7338426571965,703.869791666667
56,714,56,56,1536.08553501418,10.7525987450993,715.510416666667
57.001,892,57,57,1592.57469035598,11.1480228324919,696.497395833333
57.999,924,58,58,1657.55678535,11.60289749745,715.8984375
59,1175,59,59,1689.91269849113,11.8293888894379,696.109375
60,1430,60,60,1429.46680888029,10.006267662162,710.078125
61,1783,61,61,1728.6810163845,12.1007671146915,705.033854166667
62.001,2279,62,62,1855.0815604228,12.9855709229596,724.822916666667
63.001,3105,63,63,1992.52497593493,13.9476748315445,703.869791666667
63.999,4147,64,64,1585.06964365035,11.0954875055525,722.494791666667
65,5526,65,65,1550.46994744107,10.8532896320875,711.2421875
66,7045,66,66,1436.76623813306,10.0573636669314,699.213541666667
67.001,9239,67,67,1385.70519706386,9.69993637944704,701.9296875
68.001,11655,68,68,1656.4597932436,11.5952185527052,708.9140625
69.001,14486,69,69,1595.39725891558,11.1677808124091,696.109375
70.001,17584,70,70,1452.14103674458,10.164987257212,697.661458333333
71,20599,71,71,1607.6784589752,11.2537492128264,715.510416666667
72.001,24349,72,72,1423.1472173028,9.96203052111963,703.869791666667
73.001,28450,73,73,1517.51178550737,10.6225824985516,701.153645833333
74.001,31842,74,74,1663.27881474996,11.6429517032497,699.6015625
75,35330,75,75,1449.86435713459,10.1490504999421,720.942708333333
76,38034,76,76,1585.6682205476,11.0996775438332,715.122395833333
77,40266,77,77,1562.99876281789,10.9409913397252,739.1796875
78,41495,78,78,1545.02859301838,10.8152001511287,710.078125
79,42218,79,79,1705.08907513486,11.935623525944,753.1484375
80,41850,80,80,1371.98914599217,9.60392402194518,737.239583333333
81,40594,81,81,1103.36449579517,7.7235514705662,715.8984375
82,38032,82,82,1374.11391404347,9.61879739830432,707.75
83.001,35235,83,83,1683.31399270491,11.7831979489343,714.734375
84.001,32265,84,84,1680.49738716707,11.7634817101695,731.807291666667
85,28578,85,85,1846.44133210384,12.9250893247269,722.494791666667
86,24844,86,86,1472.8023242371,10.3096162696597,722.106770833333
87.001,21162,87,87,1378.82762548836,9.65179337841849,705.421875
88,17751,88,88,1460.4858668028,10.2234010676196,716.674479166667
89.001,14592,89,89,1660.48740753729,11.6234118527611,719.778645833333
90,11553,90,90,1729.05351230505,12.1033745861353,699.213541666667
91,9220,91,91,1542.15023893898,10.7950516725729,728.315104166667
92.003,7046,92,92,1658.99779942936,11.6129845960056,698.4375
93,5632,93,93,1692.03787356475,11.8442651149533,704.645833333333
94.001,4003,94,94,1550.88140834252,10.8561698583976,713.958333333333
95.001,3081,95,95,1375.76905157672,9.63038336103702,696.109375
96,2422,96,96,1268.83673829581,8.88185716807066,702.317708333333
97,1797,97,97,1532.93739665715,10.7305617766001,697.661458333333
98.001,1496,98,98,1848.40155980239,12.9388109186167,702.705729166667
99,1189,99,99,1455.48584117378,10.1884008882165,713.5703125
100,1118,100,100,1224.836931075,8.57385851752502,699.989583333333
101,933,101,101,1390.34271503727,9.73239900526087,715.8984375
102.001,889,102,102,1452.43340733159,10.1670338513211,699.989583333333
103,865,103,103,1143.35076591736,8.0034553614215,700.765625
104,833,104,104,1375.63507985592,9.62944555899142,705.809895833333
105.001,834,105,105,1560.76066189017,10.9253246332312,708.138020833333
106,786,106,106,1554.34675272727,10.8804272690909,703.09375
107,894,107,107,1364.27860190571,9.54995021333994,724.434895833333
108.001,916,108,108,1249.58439666381,8.74709077664667,696.497395833333
109,873,109,109,1625.41213488543,11.377884944198,699.213541666667
110.001,829,110,110,1599.50995101513,11.1965696571059,696.497395833333
111,872,111,111,1385.04611544494,9.69532280811459,712.794270833333
112,914,112,112,1613.19440914053,11.2923608639837,712.018229166667
113,887,113,113,1284.89819979368,8.99428739855574,704.645833333333
114.001,901,114,114,1521.33119380089,10.6493183566062,696.109375
115.001,957,115,115,1744.11815414862,12.2088270790404,712.018229166667
116.001,945,116,116,1537.90044070803,10.7653030849562,704.2578125
117,1000,117,117,1635.49948154166,11.4484963707916,700.377604166667
118,933,118,118,1578.72859723636,11.0511001806545,712.794270833333
119,911,119,119,1401.76580438378,9.81236063068648,698.4375
120,935,120,120,1741.30147566569,12.1891103296598,709.690104166667
121,932,121,121,1469.68502018791,10.2877951413154,699.6015625
122,957,122,122,1856.46188771766,12.9952332140236,731.419270833333
123,922,123,123,1495.2482332251,10.4667376325757,701.153645833333
124,944,124,124,1617.75915374652,11.3243140762257,719.390625
125,920,125,125,1694.95720815795,11.8647004571057,711.2421875
126.001,939,126,126,1701.75664879922,11.9122965415946,699.6015625
127,903,127,127,1419.49963439865,9.93649744079053,700.765625
128,939,128,128,1324.43769307559,9.27106385152909,703.869791666667
129.001,950,129,129,1637.06072913863,11.4594251039704,716.286458333333
130.001,910,130,130,1414.31778442953,9.90022449100669,705.421875
131.001,882,131,131,1526.05686646847,10.6823980652793,725.598958333333
132.001,891,132,132,1656.00695434127,11.5920486803889,698.4375
133,890,133,133,1551.69302941,10.86185120587,715.8984375
133.999,871,134,134,1558.37493060967,10.9086245142677,696.885416666667
135.001,803,135,135,1692.08929920727,11.8446250944509,703.481770833333
136,842,136,136,1376.45381682341,9.63517671776385,697.661458333333
137.001,786,137,137,1737.70402189596,12.1639281532717,719.002604166667
138,797,138,138,1455.87333901951,10.1911133731365,697.661458333333
139,858,139,139,1513.61740453931,10.5953218317752,711.2421875
140.001,758,140,140,1614.37598483597,11.3006318938518,723.270833333333
141,822,141,141,1759.79032013394,12.3185322409376,718.614583333333
142,751,142,142,1089.37680230727,7.62563761615092,696.497395833333
143,769,143,143,1456.76364469475,10.1973455128632,715.8984375
144.001,782,144,144,1465.21432341979,10.2565002639385,702.705729166667
145,756,145,145,1438.27905856806,10.0679534099764,696.497395833333
146,678,146,146,1659.60283178753,11.6172198225127,717.838541666667
147,681,147,147,1439.0689224072,10.0734824568504,720.942708333333
148.001,675,148,148,1522.74253419306,10.6591977393514,719.002604166667
149,612,149,149,1322.09618238617,9.25467327670318,697.2734375
150.001,584,150,150,1273.97126820093,8.91779887740649,755.864583333333
151,555,151,151,1450.1505733002,10.1510540131014,714.734375
152.001,567,152,152,1535.46797799851,10.7482758459896,714.734375
153,461,153,153,1646.68361016558,11.5267852711591,720.166666666667
154,449,154,154,1863.92132389093,13.0474492672365,696.109375
155,393,155,155,1594.01036106735,11.1580725274714,696.109375
156,392,156,156,1164.36927793884,8.15058494557185,724.822916666667
157.001,364,157,157,1627.44660953804,11.3921262667663,700.765625
158.001,328,158,158,1561.70503418565,10.9319352392996,696.885416666667
159.001,255,159,159,1420.83033324675,9.94581233272724,698.4375
160,233,160,160,1384.86035565702,9.69402248959911,706.973958333333
161.001,210,161,161,1331.02768757926,9.31719381305481,706.5859375
162.001,195,162,162,1523.95593190405,10.6676915233284,698.049479166667
163,159,163,163,1656.07875870733,11.5925513109513,699.213541666667
164,183,164,164,1540.4035524127,10.7828248668889,699.989583333333
165,132,165,165,1682.00879221875,11.7740615455312,702.705729166667
166,110,166,166,1438.78245609264,10.0714771926485,696.109375
167.001,102,167,167,1467.3869499387,10.2717086495709,696.885416666667
168,95,168,168,1484.53355955559,10.3917349168891,696.109375
169.001,92,169,169,1639.34163559228,11.475391449146,704.2578125
170,77,170,170,1408.32958028482,9.85830706199377,699.989583333333
171,80,171,171,1444.53038317243,10.111712682207,707.361979166667
172.001,81,172,172,1803.80078864175,12.6266055204922,713.958333333333
173.001,83,173,173,1526.62968830311,10.6864078181217,698.825520833333
174,83,174,174,1225.85992522033,8.58101947654229,696.497395833333
175,69,175,175,1693.73892868507,11.8561725007955,718.614583333333
176.002,57,176,176,1477.94202070096,10.3455941449067,696.885416666667
177,52,177,177,1526.39025664196,10.6847317964937,698.049479166667
178.001,55,178,178,1467.73115413161,10.2741180789213,741.5078125
179,53,179,179,1763.82955035001,12.3468068524501,696.497395833333
180.001,51,180,180,1365.2671807877,9.55687026551392,720.166666666667
181.001,44,181,181,1352.14522500789,9.46501657505524,696.885416666667
182.001,56,182,182,1566.39341803708,10.9647539262595,705.809895833333
183.001,60,183,183,1541.27487511124,10.7889241257787,696.109375
184.001,46,184,184,1680.58198554159,11.7640738987911,699.6015625
185.001,48,185,185,1434.99971300006,10.0449979910004,716.286458333333
186.001,56,186,186,1418.23712624064,9.92765988368451,702.705729166667
187,47,187,187,1501.44809405292,10.5101366583705,697.661458333333
188.001,63,188,188,1595.34435853487,11.1674105097441,708.138020833333
189,46,189,189,1686.45009466865,11.8051506626806,703.481770833333
190,46,190,190,1690.55734142292,11.8339013899604,710.078125
191,61,191,191,1247.78986330595,8.73452904314167,696.885416666667
192.001,57,192,192,1568.23354151671,10.9776347906169,696.885416666667
193,61,193,193,1562.02955632449,10.9342068942714,696.109375
194.001,68,194,194,1782.25454535794,12.4757818175055,696.885416666667
195.001,51,195,195,1404.09757796177,9.82868304573236,701.153645833333
196.001,48,196,196,1766.47745730346,12.3653422011242,696.497395833333
197,51,197,197,1418.237760175,9.92766432122497,703.09375
198,56,198,198,1761.13480977797,12.3279436684458,701.153645833333
199,49,199,199,1430.44293309567,10.0131005316697,696.497395833333
200.001,45,200,200,1914.33649374567,13.4003554562197,714.346354166667
201.001,40,201,201,1260.89927336176,8.82629491353233,696.109375
202.001,56,202,202,1445.34326902639,10.1174028831848,699.989583333333
203,53,203,203,1663.81935378655,11.6467354765059,696.109375
204.001,56,204,204,1627.94578940521,11.3956205258365,714.346354166667
204.999,58,205,205,1236.76843731421,8.6573790611995,701.153645833333
206,67,206,206,1713.9101245518,11.9973708718626,711.2421875
207,52,207,207,1336.00118996382,9.35200832974676,696.497395833333
208,42,208,208,1399.62262273322,9.79735835913253,701.153645833333
209,57,209,209,1473.4769146936,10.3143384028552,703.09375
210,48,210,210,1699.60412878359,11.8972289014851,700.377604166667
211.001,42,211,211,1636.95893454185,11.458712541793,696.109375
212,44,212,212,1270.22721640124,8.89159051480866,699.213541666667
213.001,47,213,213,1216.99050747404,8.51893355231829,735.6875
214.001,48,214,214,2092.01145570388,14.6440801899271,703.09375
215,43,215,215,1347.12770770669,9.42989395394683,696.109375
216,46,216,216,1524.32119412636,10.6702483588845,699.6015625
217.001,50,217,217,1324.34420937251,9.27040946560759,696.497395833333
218,39,218,218,1344.28058010758,9.40996406075305,703.481770833333
219,58,219,219,1535.98688008702,10.7519081606091,710.466145833333
220,37,220,220,1445.98170783202,10.1218719548241,706.973958333333
221,44,221,221,1396.64975032943,9.776548252306,696.109375
222,61,222,222,1462.06941304723,10.2344858913306,705.033854166667
223.001,46,223,223,1530.92637809463,10.7164846466624,717.0625
224.001,65,224,224,1505.34291781637,10.5374004247146,699.6015625
225,48,225,225,1585.80734463068,11.1006514124147,703.09375
226,54,226,226,1612.46013042098,11.2872209129469,700.765625
227.001,89,227,227,1789.14151931946,12.5239906352362,696.497395833333
228,54,228,228,1534.22402759248,10.7395681931474,702.705729166667
229,56,229,229,1485.55142902381,10.3988600031667,696.109375
230,71,230,230,1389.20486946767,9.72443408627372,705.809895833333
231,63,231,231,1581.40927703356,11.0698649392349,699.213541666667
232,69,232,232,1472.16387629232,10.3051471340463,698.4375
233,66,233,233,1217.98629204507,8.52590404431547,731.807291666667
234,56,234,234,1466.99237163967,10.2689466014777,698.4375
235,54,235,235,1495.09938412124,10.4656956888487,728.315104166667
236.001,57,236,236,1428.8728537602,10.0021099763214,704.2578125
237.001,62,237,237,1586.76910698616,11.1073837489031,708.138020833333
238,52,238,238,1774.29541941059,12.4200679358741,696.109375
239,68,239,239,1530.08428080732,10.7105899656512,727.927083333333
240.001,51,240,240,1467.36815127406,10.2715770589184,710.466145833333
241,47,241,241,941.116097102761,6.58781267971932,749.65625
242,56,242,242,1508.14623841443,10.557023668901,696.497395833333
243.001,56,243,243,1515.75852894683,10.6103097026278,720.166666666667
244,67,244,244,1427.14371337194,9.99000599360356,707.361979166667
245,62,245,245,1254.62386376564,8.7823670463595,726.375
246,55,246,246,1186.40328513737,8.30482299596156,696.109375
247,56,247,247,1652.23276273194,11.5656293391236,703.481770833333
248,57,248,248,1510.87630825879,10.5761341578115,709.302083333333
249,46,249,249,1570.18696884734,10.9913087819313,720.5546875
250,42,250,250,1432.70946795501,10.0289662756851,708.138020833333
251.001,47,251,251,1427.79933288822,9.99459533021753,697.661458333333
252,49,252,252,1561.02854636962,10.9271998245873,701.153645833333
253,39,253,253,1489.44916294064,10.4261441405845,701.9296875
254.001,49,254,254,1701.03817521054,11.9072672264738,717.0625
255,47,255,255,1470.0099145356,10.2900694017492,699.6015625
256,39,256,256,1764.3289141667,12.3503023991669,705.033854166667
257.001,48,257,257,1833.8912205929,12.8372385441503,705.809895833333
258,52,258,258,1577.37746642772,11.041642264994,696.885416666667
259,43,259,259,1734.44020470172,12.1410814329121,717.0625
260,41,260,260,1436.88578953215,10.0582005267251,705.421875
261,43,261,261,1384.49014397295,9.69143100781065,696.885416666667
262.001,40,262,262,1369.96422871181,9.58974960098264,700.377604166667
263.001,34,263,263,1394.38133154314,9.76066932080196,699.213541666667
264.001,39,264,264,1568.63686123318,10.9804580286323,715.8984375
265,36,265,265,1737.56415525256,12.1629490867679,735.299479166667
266,34,266,266,1414.71691514528,9.90301840601696,698.049479166667
267,26,267,267,1635.30553550924,11.4471387485647,707.361979166667
268.001,35,268,268,1291.33712225273,9.03935985576911,697.2734375
269,49,269,269,1366.20511720496,9.56343582043474,696.109375
270,38,270,270,1553.79562304652,10.8765693613256,696.109375
271.001,37,271,271,1744.3634817655,12.2105443723585,701.9296875
272,40,272,272,1354.51529626193,9.4816070738335,724.822916666667
273.001,35,273,273,1530.19405521827,10.7113583865279,709.302083333333
274,24,274,274,1596.10897651688,11.1727628356182,732.971354166667
275.001,47,275,275,1575.05860630759,11.0254102441531,710.078125
276.001,29,276,276,1476.31311113674,10.3341917779572,704.645833333333
277.001,31,277,277,1548.41005576875,10.8388703903813,738.015625
278,24,278,278,1288.78499894286,9.02149499259999,706.5859375
279.001,24,279,279,1481.20878619766,10.3684615033836,715.122395833333
280.001,32,280,280,1499.75186014784,10.4982630210349,702.705729166667
281.001,26,281,281,1446.03346467952,10.1222342527567,710.466145833333
282.001,34,282,282,1587.3364738175,11.1113553167225,698.4375
283,34,283,283,1720.42493895145,12.0429745726602,696.109375
284,24,284,284,1510.46212443749,10.5732348710624,703.09375
285.001,39,285,285,1677.79016504447,11.7445311553113,740.731770833333
286.001,29,286,286,1622.78366075369,11.3594856252758,696.885416666667
287.001,36,287,287,1378.51120789547,9.64957845526831,699.989583333333
288,33,288,288,1302.4746618121,9.11732263268473,707.75
289,46,289,289,1554.74708707028,10.883229609492,697.661458333333
290,37,290,290,1758.06556353806,12.3064589447664,699.6015625
291,33,291,291,1408.67320536922,9.86071243758455,713.958333333333
292.001,38,292,292,1341.31176959995,9.38918238719962,717.0625
293.001,35,293,293,1581.86021558524,11.0730215090966,696.497395833333
294,35,294,294,1421.26933564366,9.94888534950564,712.018229166667
295,36,295,295,1465.69246973845,10.2598472881691,701.9296875
296,38,296,296,1583.8738656815,11.0871170597705,709.302083333333
297.001,32,297,297,1299.3086234447,9.09516036411292,696.885416666667
298,43,298,298,1363.7486353746,9.54624044762218,699.6015625
299,33,299,299,1557.2792773745,10.9009549416215,718.614583333333
300,26,300,300,1401.02190537778,9.80715333764448,703.09375
301,31,301,301,1261.49588092723,8.83047116649058,699.6015625
302.001,37,302,302,1475.73764089763,10.3301634862834,715.8984375
303,42,303,303,1324.9254798829,9.2744783591803,719.390625
304.001,22,304,304,1090.70730702811,7.63495114919676,707.361979166667
305,44,305,305,1417.38398163124,9.92168787141865,709.690104166667
306,46,306,306,1602.80859378054,11.2196601564638,698.4375
